base,,base1,,sub,,sub1,,AU,,SiNCmex,,AuNP,,
Wavelength (nm),%T,Wavelength (nm),%T,Wavelength (nm),%T,Wavelength (nm),%T,Wavelength (nm),%T,Wavelength (nm),%T,Wavelength (nm),%T,
800,122.8059082,800,116.7327652,800,106.7304764,800,100.0262375,800,96.85707855,800,52.128685,800,97.21472931,
799,122.8753815,799,116.7567139,799,106.75354,799,100.0641251,799,96.81639862,799,52.13354874,799,97.20202637,
798,122.8662109,798,116.7903442,798,106.9131393,798,100.1203766,798,96.83242035,798,52.09788513,798,97.19441223,
797,122.889473,797,116.8061523,797,106.9599304,797,100.161972,797,96.83785248,797,52.10795975,797,97.25694275,
796,122.9195938,796,116.7540283,796,106.9814301,796,100.2196579,796,96.82019043,796,52.12490463,796,97.23107147,
795,122.9059677,795,116.9360657,795,106.9727554,795,100.2042313,795,96.84920502,795,52.11194229,795,97.25637817,
794,122.9045715,794,116.860733,794,106.9368515,794,100.2011642,794,96.86894226,794,52.06012726,794,97.30963135,
793,122.8660736,793,116.8610229,793,106.9143143,793,100.2086258,793,96.87238312,793,52.08832169,793,97.33324432,
792,122.9398575,792,116.8791656,792,107.0759506,792,100.3437653,792,96.90408325,792,52.07627487,792,97.31404114,
791,122.9357452,791,116.9437637,791,107.121254,791,100.3290176,791,96.89509583,791,52.0753212,791,97.38166046,
790,122.9002991,790,116.9809113,790,107.0518494,790,100.3270493,790,96.93630219,790,52.05810165,790,97.37757111,
789,123.0185623,789,116.9991989,789,107.0697098,789,100.3000946,789,96.96482849,789,52.08375549,789,97.41113281,
788,122.9643097,788,117.0338058,788,107.1904678,788,100.4258881,788,96.97504425,788,52.10535431,788,97.42406464,
787,122.966507,787,117.0704346,787,107.2733994,787,100.4832382,787,97.01811218,787,52.06829834,787,97.45825195,
786,122.995697,786,117.1726074,786,107.2192917,786,100.4780884,786,97.00558472,786,52.11061859,786,97.48638916,
785,123.0692902,785,117.1258545,785,107.188858,785,100.452652,785,97.04315948,785,52.06801224,785,97.46717834,
784,123.0625381,784,117.182251,784,107.1751328,784,100.4052124,784,97.05873108,784,52.07172012,784,97.49480438,
783,123.0776901,783,117.208252,783,107.3504715,783,100.5607834,783,97.04601288,783,52.10874557,783,97.53923035,
782,123.0732651,782,117.1838913,782,107.3568726,782,100.5824127,782,97.04813385,782,52.08761597,782,97.56498718,
781,123.1394501,781,117.2943268,781,107.3540649,781,100.5872574,781,97.10923767,781,52.09420776,781,97.56962585,
780,123.1384888,780,117.3405533,780,107.3346252,780,100.5661621,780,97.07893372,780,52.07073593,780,97.60782623,
779,123.1507034,779,117.3300629,779,107.3428497,779,100.5909424,779,97.11215973,779,52.10599899,779,97.62664795,
778,123.1565857,778,117.3356171,778,107.5056763,778,100.7214661,778,97.22199249,778,52.09119415,778,97.64291382,
777,123.1619339,777,117.3679352,777,107.5207443,777,100.7680664,777,97.17021179,777,52.09984207,777,97.67630005,
776,123.2171783,776,117.4664001,776,107.5088043,776,100.735405,776,97.19320679,776,52.10416412,776,97.69363403,
775,123.2485886,775,117.484726,775,107.5288162,775,100.7379761,775,97.19114685,775,52.1114769,775,97.75746918,
774,123.1862183,774,117.5052261,774,107.5239792,774,100.7621765,774,97.21498108,774,52.10292816,774,97.7806015,
773,123.2345963,773,117.5070801,773,107.6654892,773,100.9241791,773,97.25314331,773,52.09305954,773,97.77854156,
772,123.2751236,772,117.586731,772,107.7064362,772,100.8857269,772,97.27781677,772,52.09591293,772,97.76335144,
771,123.3072662,771,117.6235046,771,107.6548462,771,100.8767242,771,97.31760406,771,52.10942459,771,97.82190704,
770,123.30439,770,117.6774292,770,107.6156006,770,100.8491135,770,97.31268311,770,52.09445953,770,97.8883667,
769,123.3301849,769,117.6755676,769,107.8643646,769,101.0653534,769,97.3395462,769,52.10482025,769,97.88283539,
768,123.3833542,768,117.7396317,768,107.918045,768,101.0832443,768,97.36061859,768,52.09959793,768,97.94194031,
767,123.366806,767,117.7742691,767,107.8566589,767,101.0139465,767,97.3870163,767,52.102314,767,97.93710327,
766,123.4211349,766,117.8363342,766,107.8237991,766,101.0070419,766,97.41114807,766,52.13612366,766,97.9730835,
765,123.4131927,765,117.8379898,765,107.8701477,765,101.0670166,765,97.4283371,765,52.12711716,765,98.00437164,
764,123.4160309,764,117.9086533,764,108.0344696,764,101.2049408,764,97.46221924,764,52.12127686,764,98.01432037,
763,123.4404297,763,117.9500351,763,108.0269012,763,101.2362213,763,97.49668121,763,52.14970016,763,98.05342865,
762,123.474678,762,118.0090408,762,108.0321655,762,101.2028351,762,97.47898865,762,52.12509537,762,98.06687164,
761,123.4895554,761,118.0020065,761,108.0301056,761,101.2233963,761,97.5043869,761,52.13877106,761,98.10661316,
760,123.5254059,760,118.0750961,760,108.0880737,760,101.2610474,760,97.55651093,760,52.12931824,760,98.16454315,
759,123.5620499,759,118.0806961,759,108.2085266,759,101.41082,759,97.56005096,759,52.17333603,759,98.16916656,
758,123.5885773,758,118.1385727,758,108.1945877,758,101.3761978,758,97.59170532,758,52.16012573,758,98.19984436,
757,123.6113281,757,118.1872406,757,108.2119598,757,101.3933029,757,97.57077026,757,52.1658287,757,98.18226624,
756,123.6115189,756,118.2189255,756,108.1812286,756,101.4133301,756,97.61985016,756,52.1575737,756,98.21956635,
755,123.6028519,755,118.2457199,755,108.3621597,755,101.5311356,755,97.65010834,755,52.16690826,755,98.27418518,
754,123.6883774,754,118.2360382,754,108.3873062,754,101.5884857,754,97.67218018,754,52.16283035,754,98.30675507,
753,123.6890945,753,118.3643494,753,108.4088287,753,101.5750732,753,97.69348145,753,52.14143372,753,98.33638763,
752,123.7177048,752,118.395195,752,108.380127,752,101.5282364,752,97.7167511,752,52.16828537,752,98.3321991,
751,123.6999893,751,118.4180374,751,108.5479965,751,101.7081375,751,97.7266922,751,52.15797424,751,98.38047791,
750,123.6920471,750,118.4705124,750,108.6149902,750,101.725647,750,97.69837952,750,52.1506424,750,98.43996429,
749,123.8006439,749,118.5223236,749,108.5520401,749,101.7356644,749,97.75865173,749,52.14599228,749,98.3848877,
748,123.7493668,748,118.5600433,748,108.5340652,748,101.7001648,748,97.77550507,748,52.17299652,748,98.39825439,
747,123.7983856,747,118.5791931,747,108.5827255,747,101.7326508,747,97.83131409,747,52.17559814,747,98.42680359,
746,123.8063202,746,118.6179962,746,108.7750397,746,101.883606,746,97.82650757,746,52.16268921,746,98.55219269,
745,123.841011,745,118.6694641,745,108.7068939,745,101.8902435,745,97.8539505,745,52.1623497,745,98.5399704,
744,123.8432922,744,118.6861649,744,108.7308197,744,101.8514023,744,97.8296814,744,52.14529037,744,98.61412811,
743,123.8890686,743,118.7290192,743,108.723053,743,101.9225922,743,97.89491272,743,52.1789856,743,98.62133026,
742,123.8878479,742,118.7283783,742,108.7562103,742,101.9299011,742,97.90100098,742,52.16383362,742,98.56821442,
741,123.8987885,741,118.7847519,741,108.9249954,741,102.0864334,741,97.92829132,741,52.16035843,741,98.69866943,
740,123.9373932,740,118.8820724,740,108.923172,740,102.0587082,740,97.90244293,740,52.13998032,740,98.68149567,
739,123.9284058,739,118.8996429,739,108.8687515,739,102.0480652,739,97.9251709,739,52.141922,739,98.70888519,
738,123.9540253,738,118.8896866,738,108.931076,738,102.0834579,738,97.96439362,738,52.1594162,738,98.74833679,
737,123.9970245,737,118.9420547,737,109.0986252,737,102.197197,737,97.97908783,737,52.16465759,737,98.67443085,
736,123.9895096,736,119.0051575,736,109.1124268,736,102.2521286,736,97.96811676,736,52.16744995,736,98.76984406,
735,124.0442123,735,118.9990158,735,109.1103516,735,102.22509,735,97.94958496,735,52.13739777,735,98.78585052,
734,123.995224,734,119.0357895,734,109.0786362,734,102.218338,734,97.97681427,734,52.13894653,734,98.78822327,
733,124.0241852,733,119.1087036,733,109.184494,733,102.372673,733,98.02710724,733,52.14743805,733,98.74091339,
732,124.0574112,732,119.1566086,732,109.2617188,732,102.4150238,732,98.02455139,732,52.13951874,732,98.84387207,
731,124.0616226,731,119.1682968,731,109.2514496,731,102.3981094,731,98.02502441,731,52.14188766,731,98.86988831,
730,124.0899429,730,119.2305679,730,109.2263718,730,102.3470154,730,98.04219818,730,52.12117386,730,98.89741516,
729,124.1168594,729,119.2347412,729,109.2668915,729,102.3906708,729,98.05587769,729,52.13358307,729,98.90486908,
728,124.1446991,728,119.2496338,728,109.4069366,728,102.5546112,728,98.07987213,728,52.10832977,728,98.90042877,
727,124.1610184,727,119.3133011,727,109.3729706,727,102.5357971,727,98.04621887,727,52.1200943,727,98.93781281,
726,124.1776428,726,119.3762512,726,109.3943634,726,102.4876938,726,98.04269409,726,52.09176636,726,98.92032623,
725,124.1628189,725,119.379509,725,109.3653946,725,102.5147705,725,98.08776855,725,52.08098984,725,98.94902039,
724,124.2215958,724,119.4237137,724,109.490181,724,102.616951,724,98.1115036,724,52.07940292,724,98.87026215,
723,124.1873474,723,119.4987411,723,109.5903244,723,102.7148132,723,98.06056213,723,52.09830856,723,98.96082306,
722,124.2308731,722,119.5021744,722,109.5557938,722,102.6770859,722,98.05085754,722,52.07621002,722,98.96868134,
721,124.2477036,721,119.5467148,721,109.5260162,721,102.6168213,721,98.06455231,721,52.08494568,721,98.98675537,
720,124.2518082,720,119.5557861,720,109.5514679,720,102.6641235,720,98.07348633,720,52.08511353,720,98.91163635,
719,124.3048325,719,119.6054916,719,109.6868668,719,102.8068314,719,98.10530853,719,52.05977631,719,98.9315567,
718,124.2761841,718,119.6320496,718,109.7106094,718,102.7926483,718,98.09753418,718,52.06245041,718,99.00189972,
717,124.277771,717,119.6492538,717,109.654274,717,102.78405,717,98.08403015,717,52.05635834,717,99.02677917,
716,124.2849121,716,119.7091446,716,109.6915512,716,102.7874451,716,98.10489655,716,52.02789307,716,99.02663422,
715,124.2905884,715,119.7377167,715,109.8717346,715,102.9559937,715,98.0982132,715,52.0395813,715,98.93450165,
714,124.2874146,714,119.8020248,714,109.8334579,714,102.8935089,714,98.07680511,714,52.02329254,714,99.05802917,
713,124.3359222,713,119.7991333,713,109.7913361,713,102.8932114,713,98.06456757,713,52.01534653,713,99.04162598,
712,124.3271027,712,119.8064957,712,109.8167801,712,102.8944702,712,98.07556152,712,52.01157761,712,99.032341,
711,124.3599167,711,119.8578796,711,110.0063705,711,103.0855331,711,98.07607269,711,52.01056671,711,98.96911621,
710,124.3705063,710,119.893692,710,109.9217148,710,103.0481796,710,98.06482697,710,52.01245499,710,99.05726624,
709,124.3790054,709,119.9194641,709,109.9386444,709,103.0170441,709,98.06819916,709,52.00191879,709,99.04157257,
708,124.373436,708,119.9476852,708,109.9338684,708,103.0771027,708,98.06298828,708,52.01157761,708,99.05919647,
707,124.3992004,707,119.9772491,707,109.9477997,707,103.0621185,707,98.04967499,707,51.99096298,707,98.94470215,
706,124.4195709,706,120.009903,706,110.1387177,706,103.2183304,706,98.02527618,706,51.98765945,706,98.95548248,
705,124.3933945,705,120.021347,705,110.071907,705,103.1619568,705,98.02301025,705,51.97149658,705,99.07302856,
704,124.4222412,704,120.0831528,704,110.0481644,704,103.1433258,704,98.01483154,704,51.96828842,704,99.02116394,
703,124.4220352,703,120.0652695,703,110.1026764,703,103.1449203,703,98.01422882,703,51.97122574,703,99.03301239,
702,124.4566574,702,120.1046371,702,110.2423782,702,103.2840958,702,97.96077728,702,51.95649338,702,98.95767975,
701,124.4241943,701,120.1377487,701,110.1877213,701,103.2552109,701,97.9365387,701,51.94570541,701,99.04277039,
700,124.4411469,700,120.191452,700,110.1825714,700,103.2451019,700,97.92773438,700,51.9502182,700,99.03524017,
699,124.4629745,699,120.1919556,699,110.1779785,699,103.2600021,699,97.92897034,699,51.94014359,699,99.00941467,
698,124.4462738,698,120.2204361,698,110.3731613,698,103.4165497,698,97.90737152,698,51.93258667,698,98.9879837,
697,124.4571533,697,120.2577438,697,110.3242035,697,103.3749008,697,97.88264465,697,51.91804123,697,98.99742889,
696,124.4551163,696,120.2864761,696,110.2961807,696,103.3396606,696,97.89899445,696,51.92698669,696,98.97970581,
695,124.4630661,695,120.3075409,695,110.2917175,695,103.3708115,695,97.87851715,695,51.90755081,695,98.96224213,
694,124.4427643,694,120.3213348,694,110.4586868,694,103.5412064,694,97.82286072,694,51.90343857,694,98.99108124,
693,124.4749451,693,120.3706894,693,110.3962097,693,103.4597397,693,97.80580139,693,51.9010849,693,98.95239258,
692,124.4771957,692,120.3541183,692,110.394455,692,103.4411163,692,97.78012848,692,51.88552094,692,98.94793701,
691,124.4767914,691,120.3777695,691,110.3843842,691,103.4498444,691,97.76708221,691,51.88339233,691,98.8497467,
690,124.467598,690,120.4186935,690,110.5511627,690,103.6145782,690,97.74564362,690,51.8819809,690,98.85800171,
689,124.4927139,689,120.446312,689,110.4936218,689,103.571701,689,97.68798065,689,51.86639404,689,98.89051056,
688,124.4809647,688,120.4482422,688,110.4594803,688,103.5323257,688,97.66623688,688,51.86922455,688,98.87020874,
687,124.4834747,687,120.4943085,687,110.4769211,687,103.5388718,687,97.63925171,687,51.85707092,687,98.76423645,
686,124.5011444,686,120.5416412,686,110.571312,686,103.6266098,686,97.57003021,686,51.83694458,686,98.83023834,
685,124.4769135,685,120.5536346,685,110.5548248,685,103.6107635,685,97.56272125,685,51.82170105,685,98.80634308,
684,124.4737167,684,120.5525055,684,110.5753098,684,103.6075134,684,97.54088593,684,51.81658936,684,98.79750824,
683,124.4688263,683,120.6040039,683,110.6406326,683,103.77948,683,97.50325775,683,51.81533051,683,98.77924347,
682,124.4974365,682,120.6386719,682,110.5934601,682,103.6759338,682,97.45449066,682,51.79846191,682,98.76010895,
681,124.4656906,681,120.6232224,681,110.6238861,681,103.7012558,681,97.44745636,681,51.77861023,681,98.73644257,
680,124.4805222,680,120.6925507,680,110.7745743,680,103.8192368,680,97.40624237,680,51.78223801,680,98.64694214,
679,124.4809418,679,120.7089691,679,110.7394485,679,103.7764435,679,97.34629059,679,51.75619888,679,98.71387482,
678,124.4916687,678,120.7173004,678,110.7227173,678,103.7799606,678,97.30708313,678,51.75049973,678,98.67811584,
677,124.4996872,677,120.7487106,677,110.7113571,677,103.7702332,677,97.24253082,677,51.73249054,677,98.55271912,
676,124.4598236,676,120.7592468,676,110.7908249,676,103.8759918,676,97.20465088,676,51.72911835,676,98.61405945,
675,124.478653,675,120.8033905,675,110.7921753,675,103.8495865,675,97.15096283,675,51.71310806,675,98.59967041,
674,124.4650497,674,120.8382568,674,110.777092,674,103.8136749,674,97.11934662,674,51.71474838,674,98.51338959,
673,124.478981,673,120.8520737,673,110.8651657,673,103.9148712,673,97.08116913,673,51.6939621,673,98.53142548,
672,124.4852753,672,120.8588943,672,110.8350754,672,103.8965912,672,97.00964355,672,51.66551971,672,98.45614624,
671,124.4315643,671,120.9020386,671,110.8420715,671,103.8933716,671,96.95330811,671,51.6701355,671,98.3310318,
670,124.4634399,670,120.9449615,670,110.9132996,670,103.9866562,670,96.90610504,670,51.6464119,670,98.38304901,
669,124.4599228,669,120.9118118,669,110.9013519,669,103.9243088,669,96.84931183,669,51.62768936,669,98.35389709,
668,124.4596634,668,120.9286346,668,111.057373,668,104.0749893,668,96.80271149,668,51.61188889,668,98.29860687,
667,124.4283066,667,120.9721298,667,110.9889526,667,104.0308609,667,96.72982025,667,51.5898056,667,98.25843811,
666,124.4301224,666,120.9698792,666,110.9693985,666,104.0040131,666,96.6689682,666,51.57775116,666,98.20318604,
665,124.4303589,665,120.9758987,665,110.9600296,665,104.0098572,665,96.61207581,665,51.55256271,665,98.17331696,
664,124.4395599,664,121.0165634,664,111.0688477,664,104.1128387,664,96.55956268,664,51.54403305,664,98.14032745,
663,124.4385986,663,121.0386276,663,111.0220642,663,104.071846,663,96.48713684,663,51.52301025,663,98.10111237,
662,124.4346008,662,121.0847015,662,111.1695404,662,104.2192078,662,96.41629028,662,51.49777603,662,98.0394516,
661,124.4240265,661,121.093895,661,111.102356,661,104.1132813,661,96.33747864,661,51.47866058,661,97.99546814,
660,124.4307632,660,121.125618,660,111.0402908,660,104.0887222,660,96.27649689,660,51.46621323,660,97.96237183,
659,124.4668274,659,121.1457214,659,111.1618271,659,104.1935196,659,96.18378448,659,51.4438324,659,97.91928864,
658,124.4586487,658,121.1594467,658,111.1236343,658,104.1447372,658,96.12319183,658,51.41971207,658,97.84264374,
657,124.4774551,657,121.1838989,657,111.2541885,657,104.2926941,657,96.05149078,657,51.40794373,657,97.81025696,
656,124.4592819,656,121.1623993,656,111.187851,656,104.2249298,656,95.93714142,656,51.38716888,656,97.7594223,
655,124.4802856,655,121.1949463,655,111.15271,655,104.2078705,655,95.86328888,655,51.36292648,655,97.6937027,
654,124.4947281,654,121.2429962,654,111.249794,654,104.3146362,654,95.77108002,654,51.34389496,654,97.64109039,
653,124.5173798,653,121.2403564,653,111.2232361,653,104.2680893,653,95.68649292,653,51.31439972,653,97.58337402,
652,124.4983444,652,121.2762222,652,111.2116013,652,104.2353668,652,95.60493469,652,51.28636932,652,97.52182007,
651,124.5064011,651,121.3007355,651,111.2915268,651,104.3151169,651,95.51593018,651,51.26113892,651,97.45671082,
650,124.5433655,650,121.2829132,650,111.2536469,650,104.2786865,650,95.42002869,650,51.24694824,650,97.40558624,
649,124.5623093,649,121.3315735,649,111.3978882,649,104.4041138,649,95.32943726,649,51.23020935,649,97.34849548,
648,124.5758896,648,121.3294754,648,111.2883835,648,104.3440323,648,95.21954346,648,51.20913315,648,97.2779007,
647,124.632515,647,121.3856583,647,111.2792969,647,104.2931442,647,95.11375427,647,51.17910004,647,97.2142334,
646,124.6455307,646,121.3974457,646,111.3610992,646,104.3777618,646,95.01784515,646,51.17029572,646,97.1544342,
645,124.6578674,645,121.3719254,645,111.3500824,645,104.3368454,645,94.9232254,645,51.15463638,645,97.08525848,
644,124.6763916,644,121.4337006,644,111.3461227,644,104.3641815,644,94.81049347,644,51.12581253,644,96.99278259,
643,124.7514267,643,121.436058,643,111.3655777,643,104.3763962,643,94.69071198,643,51.10482025,643,96.91526031,
642,124.7553864,642,121.4624405,642,111.4271011,642,104.4253082,642,94.57936859,642,51.0814476,642,96.82200623,
641,124.7956009,641,121.4680405,641,111.4026871,641,104.3981171,641,94.47652435,641,51.06266022,641,96.77558136,
640,124.8422394,640,121.49366,640,111.4071121,640,104.4141388,640,94.33957672,640,51.0479393,640,96.70122528,
639,124.8529053,639,121.5227966,639,111.4119873,639,104.4262619,639,94.21115875,639,51.03347778,639,96.62110138,
638,124.9161987,638,121.522522,638,111.4944839,638,104.5464249,638,94.07489777,638,51.00502396,638,96.54497528,
637,125.0261765,637,121.531929,637,111.4588776,637,104.5089111,637,93.9385376,637,50.98945999,637,96.44158173,
636,125.061142,636,121.5407944,636,111.4488983,636,104.4772491,636,93.82990265,636,50.98117065,636,96.3867569,
635,125.1100082,635,121.5465088,635,111.4625244,635,104.4748306,635,93.69181061,635,50.94499588,635,96.29896545,
634,125.0623856,634,121.6014633,634,111.4874573,634,104.508934,634,93.55758667,634,50.93170547,634,96.20719147,
633,125.1433411,633,121.6293793,633,111.4659653,633,104.504631,633,93.4159317,633,50.91213989,633,96.11331177,
632,125.2718353,632,121.6465225,632,111.4900208,632,104.537262,632,93.26556396,632,50.90073395,632,96.01725006,
631,125.2641296,631,121.6566925,631,111.5109177,631,104.5166245,631,93.12406158,631,50.88159561,631,95.91700745,
630,125.2060852,630,121.6744766,630,111.5285034,630,104.5383606,630,92.98140717,630,50.85514069,630,95.8390274,
629,125.2408829,629,121.6999969,629,111.5198364,629,104.5392532,629,92.83091736,629,50.84274292,629,95.73169708,
628,125.2369385,628,121.7166214,628,111.5169907,628,104.5575943,628,92.66423035,628,50.81086731,628,95.61465454,
627,125.3021393,627,121.7131729,627,111.4957199,627,104.5634537,627,92.49808502,627,50.80264664,627,95.52613831,
626,125.2605438,626,121.7310333,626,111.4763412,626,104.5649643,626,92.32002258,626,50.76996231,626,95.4114151,
625,125.2782669,625,121.7124252,625,111.5031128,625,104.576683,625,92.13523102,625,50.74213028,625,95.27700043,
624,125.2741241,624,121.7210312,624,111.516655,624,104.5548325,624,91.9578476,624,50.72947311,624,95.1802597,
623,125.2649689,623,121.7078476,623,111.4919052,623,104.5611038,623,91.76263428,623,50.70785904,623,95.03897095,
622,125.2648621,622,121.7075119,622,111.5063095,622,104.5729904,622,91.56850433,622,50.67670822,622,94.92189026,
621,125.2312088,621,121.7036285,621,111.5004044,621,104.5622101,621,91.37065887,621,50.6566658,621,94.78453064,
620,125.2097015,620,121.7036133,620,111.4870911,620,104.5624008,620,91.17012024,620,50.62562943,620,94.65368652,
619,125.1370316,619,121.6864243,619,111.4953537,619,104.5582047,619,90.9721756,619,50.59254074,619,94.51262665,
618,125.0820313,618,121.6433411,618,111.4689255,618,104.5484772,618,90.73310852,618,50.57205963,618,94.38318634,
617,125.0569077,617,121.6601105,617,111.4733353,617,104.5505295,617,90.50261688,617,50.53082275,617,94.21562958,
616,125.0230942,616,121.6663971,616,111.4662857,616,104.5443573,616,90.27627563,616,50.50613403,616,94.04945374,
615,124.9934769,615,121.6507797,615,111.455513,615,104.5302658,615,90.05112457,615,50.47323608,615,93.90125275,
614,124.9646072,614,121.6472168,614,111.4620667,614,104.5395737,614,89.79862976,614,50.4403038,614,93.74497986,
613,124.9084015,613,121.6504211,613,111.4400864,613,104.5109482,613,89.58323669,613,50.41203308,613,93.59257507,
612,124.9058609,612,121.6432724,612,111.4349747,612,104.5290833,612,89.34487152,612,50.37630844,612,93.42868805,
611,124.8840714,611,121.6470871,611,111.4523773,611,104.5515442,611,89.0891037,611,50.35191345,611,93.27376556,
610,124.8478851,610,121.6452255,610,111.4409943,610,104.5415878,610,88.8371582,610,50.33108521,610,93.11856842,
609,124.8227386,609,121.6699829,609,111.460289,609,104.5411072,609,88.59555054,609,50.30456924,609,92.95921326,
608,124.8268967,608,121.6850052,608,111.4706039,608,104.5612793,608,88.34651947,608,50.2791214,608,92.81228638,
607,124.8427048,607,121.7104645,607,111.4872894,607,104.5504608,607,88.07502747,607,50.24950409,607,92.62971497,
606,124.8544922,606,121.7251434,606,111.4897766,606,104.5827484,606,87.83336639,606,50.22988892,606,92.46588898,
605,124.9774246,605,121.7341461,605,111.5162125,605,104.5875778,605,87.56807709,605,50.20771027,605,92.29624176,
604,125.0441055,604,121.755394,604,111.496582,604,104.6223373,604,87.31079102,604,50.189991,604,92.14215088,
603,125.0882874,603,121.7792053,603,111.559845,603,104.6417923,603,87.03769684,603,50.17479706,603,91.97284698,
602,125.1490631,602,121.8277817,602,111.5704193,602,104.6688309,602,86.76685333,602,50.15709305,602,91.79174042,
601,125.2065201,601,121.8725204,601,111.6061783,601,104.6983261,601,86.48530579,601,50.14321136,601,91.61813354,
600,125.303009,600,121.9063492,600,111.6472397,600,104.712059,600,86.2325058,600,50.13465881,600,91.46510315,
599,125.37677,599,121.955658,599,111.6724701,599,104.772934,599,85.9563446,599,50.12552643,599,91.29882813,
598,125.4800415,598,121.9986877,598,111.728035,598,104.7681122,598,85.65702057,598,50.1137619,598,91.11845398,
597,125.5887299,597,122.0420227,597,111.7666855,597,104.8115692,597,85.36817169,597,50.09666824,597,90.94645691,
596,125.6480331,596,122.0665665,596,111.8020325,596,104.8486023,596,85.07138824,596,50.07837296,596,90.74115753,
595,125.7392654,595,122.1287994,595,111.832901,595,104.9090042,595,84.77478027,595,50.06865311,595,90.55352783,
594,125.8147583,594,122.1516495,594,111.8579407,594,104.9320221,594,84.44989777,594,50.05379868,594,90.36408234,
593,125.8768539,593,122.1989899,593,111.9045715,593,104.9677277,593,84.11199188,593,50.03255463,593,90.1346283,
592,125.8218384,592,122.2000275,592,111.9352798,592,104.9836884,592,83.77841949,592,50.01255417,592,89.94289398,
591,125.8672333,591,122.2318268,591,111.9574661,591,105.01931,591,83.41881561,591,49.98962402,591,89.69104004,
590,125.9298706,590,122.2511749,590,111.9759216,590,105.010643,590,83.05055237,590,49.96631241,590,89.42437744,
589,125.940918,589,122.2543869,589,111.9578476,589,104.9924164,589,82.67022705,589,49.92153168,589,89.18008423,
588,125.9366302,588,122.2325668,588,111.96418,588,105.008934,588,82.26493835,588,49.8849678,588,88.90242767,
587,125.9392853,587,122.23349,587,111.9518127,587,104.9824219,587,81.86181641,587,49.84453201,587,88.6219101,
586,125.8460617,586,122.2194901,586,111.9097977,586,104.9259644,586,81.44093323,586,49.80298615,586,88.33752441,
585,125.7925186,585,122.1451721,585,111.8740921,585,104.9251099,585,81.0007782,585,49.75597382,585,88.04123688,
584,125.77034,584,122.1444702,584,111.8059769,584,104.8829346,584,80.54457855,584,49.69067383,584,87.72026062,
583,125.675621,583,122.0713348,583,111.8108749,583,104.8587952,583,80.11426544,583,49.652565,583,87.40827179,
582,125.6296616,582,122.0512161,582,111.7769394,582,104.818428,582,79.62846375,582,49.59904099,582,87.0911026,
581,125.5459518,581,122.0111847,581,111.7230988,581,104.7987976,581,79.19521332,581,49.5351181,581,86.76400757,
580,125.4739609,580,121.9619751,580,111.68927,580,104.7514648,580,78.68886566,580,49.48049164,580,86.42182922,
579,125.3900681,579,121.9511032,579,111.6514053,579,104.7173615,579,78.19761658,579,49.43451691,579,86.07147217,
578,125.3200989,578,121.8521957,578,111.6180801,578,104.6866074,578,77.70774841,578,49.37670898,578,85.73223114,
577,125.2387161,577,121.836235,577,111.5932083,577,104.6626816,577,77.19549561,577,49.31727219,577,85.38897705,
576,125.1357803,576,121.805397,576,111.5196915,576,104.591156,576,76.71077728,576,49.27709579,576,85.02086639,
575,125.085701,575,121.772644,575,111.5005646,575,104.5791168,575,76.193573,575,49.21743393,575,84.66330719,
574,125.0474472,574,121.7364578,574,111.4567184,574,104.546608,574,75.66268921,574,49.17332077,574,84.30929565,
573,124.9840012,573,121.7022095,573,111.4280472,573,104.4991608,573,75.14857483,573,49.12520981,573,83.94476318,
572,124.9284515,572,121.6451187,572,111.4262466,572,104.482338,572,74.62487793,572,49.082798,572,83.56374359,
571,124.8873978,571,121.6470032,571,111.3687668,571,104.4486771,571,74.08380127,571,49.03429794,571,83.18457031,
570,124.8245239,570,121.6315308,570,111.3310318,570,104.4415588,570,73.56687164,570,48.99267578,570,82.81402588,
569,123.4660416,569,120.979866,569,110.9069672,569,103.9857178,569,72.81413269,569,48.80554962,569,82.15750122,
568,123.4535904,568,120.9601517,568,110.9120102,568,104.0204315,568,72.25270844,568,48.75920868,568,81.78180695,
567,123.3530655,567,120.947525,567,110.8733978,567,103.9633026,567,71.69416809,567,48.72544479,567,81.40287018,
566,123.3491745,566,120.9221344,566,110.8513947,566,103.9463196,566,71.1615448,566,48.68778992,566,81.02918243,
565,123.3814621,565,120.9276581,565,110.8826065,565,103.9733505,565,70.62249756,565,48.66628265,565,80.63347626,
564,123.4528503,564,120.9887161,564,110.905304,564,103.9884796,564,70.06330872,564,48.64212418,564,80.27300262,
563,123.4086533,563,121.017601,563,110.9448318,563,104.0056458,563,69.50735474,563,48.60829544,563,79.8860321,
562,123.3793488,562,120.9848022,562,110.9111404,562,103.9999161,562,68.94077301,562,48.58557892,562,79.48524475,
561,123.3615646,561,120.9804764,561,110.8889236,561,104.0101624,561,68.38152313,561,48.5403595,561,79.09759521,
560,123.340332,560,121.0048676,560,110.9084167,560,104.0327682,560,67.82257843,560,48.52467346,560,78.70343018,
559,123.3392334,559,121.0124512,559,110.9004822,559,104.0355682,559,67.25534058,559,48.48557281,559,78.28900909,
558,123.3242722,558,121.0352402,558,110.9193802,558,104.0250931,558,66.68113708,558,48.46506119,558,77.91242981,
557,123.3242035,557,121.0069885,557,110.9202271,557,104.0305252,557,66.1264801,557,48.42802429,557,77.50505066,
556,123.3363495,556,121.0409393,556,110.9288559,556,104.0235977,556,65.55570984,556,48.40092087,556,77.10668182,
555,123.3248978,555,121.0408173,555,110.9309769,555,104.0226212,555,64.9970932,555,48.36730194,555,76.72730255,
554,123.3002625,554,121.0659637,554,110.948822,554,104.0549164,554,64.42526245,554,48.34229279,554,76.32310486,
553,123.3076706,553,121.0196152,553,110.9180679,553,104.0528564,553,63.95764923,553,48.3138237,553,75.92214966,
552,123.2972031,552,121.0566559,552,110.9341736,552,104.0471191,552,63.40219498,552,48.28895569,552,75.52593231,
551,123.2550507,551,121.0462189,551,110.9600296,551,104.071785,551,62.84962463,551,48.25894547,551,75.13186646,
550,123.2381821,550,121.0587769,550,110.9518433,550,104.0621185,550,62.29961395,550,48.22145844,550,74.75540924,
549,123.2529602,549,121.0709915,549,110.9756699,549,104.0835037,549,61.75834656,549,48.18781281,549,74.36895752,
548,123.2299957,548,121.0924759,548,110.9710846,548,104.0639725,548,61.22068024,548,48.16372681,548,73.98674774,
547,123.2404327,547,121.0998688,547,110.972702,547,104.0835495,547,60.69115448,547,48.12943268,547,73.60771179,
546,123.2475662,546,121.0849915,546,111.0016327,546,104.092453,546,60.17993164,546,48.08111954,546,73.24662781,
545,123.2509842,545,121.1043854,545,110.9936981,545,104.0777359,545,59.69395065,545,48.03722,545,72.87510681,
544,123.283638,544,121.1466446,544,111.0220413,544,104.1091003,544,59.19963837,544,48.01762772,544,72.5406723,
543,123.2849808,543,121.1491928,543,111.0541229,543,104.1473007,543,58.72088242,543,47.99211502,543,72.2046051,
542,123.2882156,542,121.1774216,542,111.0804443,542,104.1534195,542,58.27425766,542,47.97206879,542,71.88661957,
541,123.2984695,541,121.2071991,541,111.0735779,541,104.1654816,541,57.82765579,541,47.93399811,541,71.55795288,
540,123.3306046,540,121.2335358,540,111.1056824,540,104.1894531,540,57.39115906,540,47.90721893,540,71.23660278,
539,123.3506775,539,121.2359543,539,111.1287003,539,104.2208099,539,56.98031235,539,47.88605499,539,70.95010376,
538,123.3002777,538,121.2512283,538,111.1482773,538,104.2307281,538,56.59728241,538,47.85042572,538,70.65311432,
537,123.3286057,537,121.28508,537,111.175087,537,104.2639618,537,56.23033142,537,47.81417084,537,70.37245178,
536,123.3264771,536,121.2889404,536,111.1498871,536,104.2740707,536,55.86485291,536,47.78644943,536,70.11791992,
535,123.3173752,535,121.3170395,535,111.1985931,535,104.2987823,535,55.52342987,535,47.74075317,535,69.88161469,
534,123.3489761,534,121.3634644,534,111.2018738,534,104.3278351,534,55.20316315,534,47.71749496,534,69.64292908,
533,123.3554611,533,121.3770523,533,111.2187729,533,104.3295364,533,54.91179657,533,47.68927765,533,69.41464233,
532,123.3495941,532,121.3731155,532,111.2516251,532,104.3331146,532,54.64057159,532,47.65753937,532,69.23361206,
531,123.3924255,531,121.4017029,531,111.2413635,531,104.3511124,531,54.40299988,531,47.61368179,531,69.02285004,
530,123.4342728,530,121.4377136,530,111.2567215,530,104.3827896,530,54.18461609,530,47.59578323,530,68.86489105,
529,123.4066696,529,121.4394684,529,111.2921448,529,104.3790436,529,53.98671722,529,47.55749893,529,68.72157288,
528,123.4247055,528,121.4598389,528,111.3111877,528,104.3848877,528,53.81128693,528,47.52700806,528,68.58662415,
527,123.4559021,527,121.4905701,527,111.3341217,527,104.4317474,527,53.68301773,527,47.49154282,527,68.47862244,
526,123.4325027,526,121.5236664,526,111.3446579,526,104.434494,526,53.55408096,526,47.45886993,526,68.37741852,
525,123.4570999,525,121.5435181,525,111.3571625,525,104.4570084,525,53.45565796,525,47.43302536,525,68.29652405,
524,123.4279404,524,121.5570602,524,111.3878479,524,104.4675446,524,53.39915085,524,47.40213394,524,68.24506378,
523,123.4494095,523,121.5826263,523,111.4198685,523,104.483017,523,53.35168839,523,47.37982941,523,68.21560669,
522,123.438797,522,121.5863953,522,111.4055176,522,104.4943314,522,53.3393631,522,47.34970093,522,68.19516754,
521,123.4654922,521,121.6005554,521,111.4334717,521,104.5145493,521,53.33601761,521,47.31029892,521,68.19319916,
520,123.4481964,520,121.6153107,520,111.4436188,520,104.5319672,520,53.38343811,520,47.29050446,520,68.21126556,
519,123.4835892,519,121.6350327,519,111.4714661,519,104.5373688,519,53.44158554,519,47.25498962,519,68.25230408,
518,123.4885788,518,121.6401901,518,111.4822159,518,104.5567245,518,53.5320282,518,47.22721481,518,68.29060364,
517,123.4836426,517,121.6611481,517,111.516037,517,104.5541153,517,53.63854599,517,47.20241928,517,68.35666656,
516,123.4976196,516,121.6988068,516,111.5288849,516,104.5973282,516,53.77856445,516,47.17010117,516,68.47167206,
515,123.4784851,515,121.7137299,515,111.5348969,515,104.6295013,515,53.92028809,515,47.14752197,515,68.56228638,
514,123.4898911,514,121.7364349,514,111.56427,514,104.6352539,514,54.10993576,514,47.1132164,514,68.69320679,
513,123.5134811,513,121.7374649,513,111.5873947,513,104.6432343,513,54.30819321,513,47.08042145,513,68.81105804,
512,123.5016708,512,121.8324432,512,111.6092529,512,104.6778717,512,54.52893448,512,47.05482483,512,68.96547699,
511,123.5054932,511,121.8197327,511,111.6305847,511,104.6954498,511,54.77845001,511,47.01620102,511,69.16092682,
510,123.5216827,510,121.8256607,510,111.6291046,510,104.7100449,510,55.02377701,510,46.98180389,510,69.31723022,
509,123.5157928,509,121.8383636,509,111.6609726,509,104.7202911,509,55.29008484,509,46.94063187,509,69.48812866,
508,123.5201035,508,121.8610382,508,111.663353,508,104.7447586,508,55.58189774,508,46.91379166,508,69.70568848,
507,123.5306702,507,121.8903656,507,111.7052917,507,104.7526703,507,55.87109756,507,46.8884697,507,69.9118576,
506,123.5482712,506,121.9043732,506,111.7288208,506,104.7751465,506,56.19625854,506,46.85109329,506,70.12324524,
505,123.5303497,505,121.9146957,505,111.7329865,505,104.8041611,505,56.52561951,505,46.813797,505,70.35016632,
504,123.5186615,504,121.937851,504,111.7556686,504,104.8242188,504,56.86699677,504,46.77508545,504,70.59449005,
503,123.544075,503,121.9959412,503,111.7872849,503,104.8565063,503,57.2061615,503,46.74261093,503,70.81513977,
502,123.5247116,502,121.999649,502,111.8211746,502,104.8425903,502,57.55479431,502,46.71495056,502,71.07685089,
501,123.5563278,501,122.0267868,501,111.8330994,501,104.8869476,501,57.91914368,501,46.6784935,501,71.32940674,
500,123.5564575,500,122.0539322,500,111.8572693,500,104.905304,500,58.26812363,500,46.63323212,500,71.57695007,
499,123.5798569,499,122.0830765,499,111.8789902,499,104.9278412,499,58.62144089,499,46.58755493,499,71.81821442,
498,123.5713501,498,122.1254501,498,111.9201889,498,104.9501648,498,58.99947739,498,46.55173874,498,72.06593323,
497,123.5781326,497,122.1317749,497,111.9053497,497,104.9568863,497,59.34522247,497,46.52019882,497,72.34037781,
496,123.5939407,496,122.1637955,496,111.9257813,496,104.9838638,496,59.70483398,496,46.48331833,496,72.59724426,
495,123.5969162,495,122.2112656,495,111.9592285,495,105.0092087,495,60.07448578,495,46.44309235,495,72.83509827,
494,123.6101608,494,122.2143173,494,111.9876404,494,105.042984,494,60.44490433,494,46.4144516,494,73.09187317,
493,123.63694,493,122.2765961,493,112.0454178,493,105.0527954,493,60.78323746,493,46.35866165,493,73.34112549,
492,123.6320724,492,122.2502747,492,112.081543,492,105.074295,492,61.04689789,492,46.317379,492,73.58810425,
491,123.6572037,491,122.3247528,491,112.1188507,491,105.1187057,491,61.38049316,491,46.29417038,491,73.84336853,
490,123.6756439,490,122.3541107,490,112.1204987,490,105.141304,490,61.71894836,490,46.25837326,490,74.07215118,
489,123.6706696,489,122.3940735,489,112.130867,489,105.1463928,489,62.05093384,489,46.22491837,489,74.30625916,
488,123.6620178,488,122.4277039,488,112.1503677,488,105.1547852,488,62.36537552,488,46.19431305,488,74.53451538,
487,123.6974716,487,122.4380341,487,112.2058258,487,105.2014694,487,62.67435455,487,46.15557098,487,74.74186707,
486,123.7031479,486,122.4803314,486,112.1983032,486,105.2259827,486,62.97450638,486,46.132164,486,74.96359253,
485,123.7272034,485,122.4622574,485,112.2352371,485,105.2702179,485,63.27403259,485,46.09471893,485,75.17314911,
484,123.7202606,484,122.5587234,484,112.2702942,484,105.277359,484,63.5336647,484,46.07094574,484,75.38617706,
483,123.734726,483,122.5735168,483,112.2953033,483,105.3080902,483,63.81842422,483,46.04327011,483,75.5860672,
482,123.7351151,482,122.5930328,482,112.3492584,482,105.3235397,482,64.07974243,482,46.0253334,482,75.76667023,
481,123.7781982,481,122.6185074,481,112.3879395,481,105.3669128,481,64.32925415,481,46.00048828,481,75.95757294,
480,123.781311,480,122.6435547,480,112.4160767,480,105.4092407,480,64.56925964,480,45.98018646,480,76.15039063,
479,123.7800446,479,122.7020264,479,112.447319,479,105.4544449,479,64.8164444,479,45.95320892,479,76.3181076,
478,123.7903442,478,122.7044449,478,112.4865417,478,105.4849472,478,65.03450012,478,45.94208908,478,76.45953369,
477,123.8596191,477,122.7837448,477,112.531723,477,105.511795,477,65.24417114,477,45.91596603,477,76.6342392,
476,123.87043,476,122.8250961,476,112.5434647,476,105.540802,476,65.46717072,476,45.90000153,476,76.80059814,
475,123.8652954,475,122.8623276,475,112.594841,475,105.5563431,475,65.66215515,475,45.86477661,475,76.94917297,
474,123.9071274,474,122.9054718,474,112.5950775,474,105.583786,474,65.85015869,474,45.84977341,474,77.077034,
473,123.9341888,473,122.9419937,473,112.65905,473,105.6194534,473,66.03699493,473,45.82610703,473,77.21021271,
472,123.9225159,472,122.9885941,472,112.7110138,472,105.648468,472,66.20374298,472,45.8024826,472,77.35188293,
471,123.9661331,471,123.0295868,471,112.7635574,471,105.7039032,471,66.39359283,471,45.77593994,471,77.47174835,
470,123.9713821,470,123.0822906,470,112.7600784,470,105.7555542,470,66.54525757,470,45.74828339,470,77.60565948,
469,124.0000153,469,123.1161804,469,112.8270645,469,105.7839127,469,66.69381714,469,45.70596695,469,77.71431732,
468,124.0213394,468,123.1848831,468,112.8738632,468,105.8157806,468,66.84249115,468,45.67800903,468,77.81336212,
467,124.0550842,467,123.2098007,467,112.8717651,467,105.8677521,467,66.97808075,467,45.65585327,467,77.91304779,
466,124.0491638,466,123.2873535,466,112.9314194,466,105.872879,466,67.12799072,466,45.62717056,466,78.02880096,
465,124.0823975,465,123.3315735,465,112.9772034,465,105.9307709,465,67.26341248,465,45.58839035,465,78.13793182,
464,124.1036987,464,123.3482513,464,113.0408783,464,105.9776459,464,67.36890411,464,45.54919434,464,78.22159576,
463,124.1362228,463,123.393486,463,113.0883331,463,106.0273972,463,67.49249268,463,45.50804138,463,78.34113312,
462,124.1627197,462,123.4315186,462,113.1347046,462,106.0557861,462,67.58407593,462,45.47153091,462,78.39201355,
461,124.1818771,461,123.502861,461,113.1764297,461,106.128952,461,67.69963837,461,45.43091965,461,78.48925018,
460,124.2018967,460,123.5490952,460,113.1933441,460,106.1548462,460,67.79962921,460,45.39133072,460,78.57061768,
459,124.2233124,459,123.6003265,459,113.2556686,459,106.2005844,459,67.9069519,459,45.35132217,459,78.61740112,
458,124.2589722,458,123.6908798,458,113.3132706,458,106.2514801,458,67.98674774,458,45.31633377,458,78.71361542,
457,124.2947311,457,123.7200775,457,113.3586884,457,106.288826,457,68.06795502,457,45.26137924,457,78.77210236,
456,124.3125076,456,123.7804184,456,113.4163589,456,106.3454514,456,68.16200256,456,45.21681595,456,78.86882782,
455,124.3530655,455,123.8229065,455,113.4572754,455,106.3770981,455,68.24357605,455,45.1717453,455,78.92739868,
454,124.3920898,454,123.8613968,454,113.524231,454,106.4429855,454,68.31395721,454,45.14537048,454,78.97198486,
453,124.3895645,453,123.9378128,453,113.548851,453,106.4604034,453,68.36901093,453,45.11133194,453,79.04164124,
452,124.431488,452,123.9817123,452,113.6202087,452,106.5202713,452,68.44354248,452,45.0710144,452,79.09244537,
451,124.4685059,451,124.0690613,451,113.6741638,451,106.5699615,451,68.52037048,451,45.0356636,451,79.13796997,
450,124.5039673,450,124.1057968,450,113.7221375,450,106.6090851,450,68.58191681,450,45.00475693,450,79.20939636,
449,124.5521774,449,124.1869812,449,113.7984543,449,106.6832275,449,68.64720917,449,44.98482132,449,79.26873016,
448,124.5795288,448,124.2780228,448,113.842926,448,106.7440643,448,68.71069336,448,44.94804764,448,79.31021881,
447,124.6449203,447,124.3010635,447,113.9045105,447,106.792923,447,68.76038361,447,44.91983032,447,79.36316681,
446,124.6558304,446,124.3847733,446,113.9412537,446,106.8339005,446,68.8187561,446,44.89985275,446,79.41993713,
445,124.7160568,445,124.4499664,445,114.0207672,445,106.8999023,445,68.85462952,445,44.87212372,445,79.45827484,
444,124.7721786,444,124.5290146,444,114.0971451,444,106.966362,444,68.90531921,444,44.84569168,444,79.50099945,
443,124.7222443,443,124.5765305,443,114.134346,443,106.996582,443,68.95835114,443,44.8293457,443,79.54830933,
442,124.786499,442,124.6419296,442,114.2174454,442,107.0799484,442,69.00325012,442,44.80932999,442,79.61147308,
441,124.8333435,441,124.7104492,441,114.2432327,441,107.1298752,441,69.06307983,441,44.80123138,441,79.64964294,
440,124.8868942,440,124.8014908,440,114.3262024,440,107.1985703,440,69.07901764,440,44.7700386,440,79.69004059,
439,124.9528732,439,124.8774185,439,114.3969269,439,107.2542877,439,69.12837982,439,44.75683212,439,79.74608612,
438,124.9970093,438,124.9552383,438,114.4441452,438,107.3246613,438,69.16397858,438,44.74158096,438,79.76522827,
437,125.0753174,437,125.0436935,437,114.541687,437,107.3988113,437,69.19773102,437,44.72100067,437,79.81813812,
436,125.1529541,436,125.1108627,436,114.6076202,436,107.4581985,436,69.23690796,436,44.70578003,436,79.86103821,
435,125.2275314,435,125.2043228,435,114.7224579,435,107.5359497,435,69.27870178,435,44.67915344,435,79.91710663,
434,125.3147125,434,125.2889404,434,114.7656174,434,107.5878525,434,69.29559326,434,44.6679306,434,79.94734955,
433,125.3567657,433,125.3620529,433,114.8343353,433,107.6859436,433,69.33709717,433,44.63174057,433,79.99016571,
432,125.4465332,432,125.4501343,432,114.9264374,432,107.7411041,432,69.37197876,432,44.62022781,432,80.03657532,
431,125.5760422,431,125.5531998,431,114.9971695,431,107.7956772,431,69.4018631,431,44.59284592,431,80.0637207,
430,125.6185074,430,125.6517181,430,115.0814667,430,107.8853607,430,69.43379974,430,44.57536697,430,80.12992859,
429,125.6837463,429,125.7416382,429,115.1554565,429,107.9862747,429,69.45034027,429,44.54332352,429,80.15293121,
428,125.7902145,428,125.7846451,428,115.25,428,108.0266724,428,69.44949341,428,44.49474335,428,80.19477844,
427,125.8744583,427,125.8941498,427,115.2987213,427,108.1175919,427,69.46112823,427,44.45901108,427,80.22798157,
426,125.9710159,426,125.9681473,426,115.3726807,426,108.1797714,426,69.49423218,426,44.43719482,426,80.29056549,
425,126.0365829,425,126.0788879,425,115.4878387,425,108.2792969,425,69.51621246,425,44.39543915,425,80.32363892,
424,126.1525421,424,126.1784439,424,115.5752869,424,108.3529358,424,69.54784393,424,44.37499619,424,80.37492371,
423,126.2754593,423,126.287735,423,115.678421,423,108.4584198,423,69.57693481,423,44.34822083,423,80.41177368,
422,126.4102554,422,126.4082413,422,115.7359009,422,108.5499649,422,69.60261536,422,44.3135643,422,80.45700073,
421,126.5167465,421,126.5460815,421,115.840744,421,108.6222153,421,69.59089661,421,44.2773819,421,80.48404694,
420,126.6084061,420,126.6135101,420,115.9143219,420,108.6819534,420,69.60943604,420,44.25692749,420,80.52921295,
419,126.6562119,419,126.6864548,419,116.0274353,419,108.7816086,419,69.63872528,419,44.22653198,419,80.56855011,
418,126.7893906,418,126.8050766,418,116.1243286,418,108.8755264,418,69.66044617,418,44.20828247,418,80.63978577,
417,126.9452591,417,126.9328918,417,116.2278137,417,108.9548264,417,69.63148499,417,44.17524338,417,80.63816071,
416,127.0160065,416,127.0139465,416,116.3128738,416,109.0539246,416,69.65396881,416,44.14778519,416,80.69416809,
415,127.0870056,415,127.0992661,415,116.405014,415,109.1333389,415,69.67223358,415,44.12971878,415,80.75350952,
414,127.2260818,414,127.2491608,414,116.5401688,414,109.257103,414,69.65765381,414,44.1038208,414,80.75543976,
413,127.3624649,413,127.3752441,413,116.5937653,413,109.3013306,413,69.68370819,413,44.07190704,413,80.79550934,
412,127.4599304,412,127.459671,412,116.6867371,412,109.3951797,412,69.69058228,412,44.05366898,412,80.84394073,
411,127.576973,411,127.5918121,411,116.7654419,411,109.493576,411,69.68238068,411,44.05037689,411,80.87651062,
410,127.6613464,410,127.7246246,410,116.9165268,410,109.5714569,410,69.69130707,410,44.01344681,410,80.91249084,
409,127.7931595,409,127.8063278,409,116.9865875,409,109.6716919,409,69.67576599,409,43.9878006,409,80.92105103,
408,127.8974686,408,127.9311752,408,117.0700455,408,109.7542038,408,69.68361664,408,43.97542191,408,80.9746933,
407,128.0052948,407,128.0413818,407,117.1527634,407,109.8620911,407,69.67394257,407,43.9379425,407,80.96986389,
406,128.1284027,406,128.1351013,406,117.3037415,406,109.9314728,406,69.6584549,406,43.90165329,406,80.9977417,
405,128.2215424,405,128.2526245,405,117.3651199,405,110.0580826,405,69.67006683,405,43.88632965,405,81.05045319,
404,128.3384552,404,128.3600922,404,117.4954758,404,110.0897675,404,69.65167236,404,43.84615326,404,81.05506897,
403,128.4372711,403,128.4436646,403,117.5971146,403,110.1993942,403,69.63200378,403,43.81866837,403,81.06446838,
402,128.4754333,402,128.5841522,402,117.6660995,402,110.3285904,402,69.66290283,402,43.80248642,402,81.09593201,
401,128.6732025,401,128.7276917,401,117.7938004,401,110.4534988,401,69.62406921,401,43.75246048,401,81.10292816,
400,128.8031769,400,128.8136902,400,117.8510818,400,110.499176,400,69.63147736,400,43.71733475,400,81.11659241,
399,128.8306885,399,128.9485931,399,117.9636841,399,110.5918503,399,69.62614441,399,43.69441605,399,81.15483856,
398,129.0238953,398,129.1043396,398,118.1378326,398,110.7620087,398,69.56733704,398,43.6444397,398,81.14324951,
397,129.1307068,397,129.1860199,397,118.193161,397,110.8233337,397,69.58262634,397,43.61645508,397,81.15791321,
396,129.2553101,396,129.3004303,396,118.3213196,396,110.8992233,396,69.57202911,396,43.60688782,396,81.18166351,
395,129.3101349,395,129.4423828,395,118.4565659,395,111.017189,395,69.54309082,395,43.56855011,395,81.16170502,
394,129.4899139,394,129.6205444,394,118.5782166,394,111.1255875,394,69.5211792,394,43.54289246,394,81.17357635,
393,129.5800323,393,129.7549438,393,118.6413193,393,111.2378693,393,69.509552,393,43.52364349,393,81.22993469,
392,129.7244263,392,129.8507538,392,118.7820892,392,111.3525162,392,69.48878479,392,43.50095367,392,81.20500183,
391,129.8444824,391,130.0018311,391,118.8893051,391,111.468399,391,69.45568085,391,43.4888916,391,81.21350861,
390,129.9445038,390,130.1221619,390,118.9947586,390,111.5736389,390,69.44341278,390,43.4822464,390,81.23403168,
389,130.0913239,389,130.2676544,389,119.1426544,389,111.7119675,389,69.42536163,389,43.45358658,389,81.21678162,
388,130.25354,388,130.4027405,388,119.2559357,388,111.7942429,388,69.42196655,388,43.44287109,388,81.23165131,
387,130.3838043,387,130.5510406,387,119.3478088,387,111.8723755,387,69.39485931,387,43.42224884,387,81.24687958,
386,130.5464935,386,130.6955566,386,119.4909821,386,112.0073166,386,69.42150116,386,43.40114212,386,81.22830963,
385,130.6846313,385,130.855896,385,119.610405,385,112.1239929,385,69.35159302,385,43.38199997,385,81.22737122,
384,130.8221741,384,130.9902039,384,119.7407227,384,112.2355804,384,69.35810089,384,43.36812973,384,81.21652222,
383,131.017807,383,131.1551666,383,119.8725739,383,112.3827133,383,69.37355804,383,43.33600616,383,81.21791077,
382,131.156723,382,131.2989349,382,120.0079651,382,112.4808197,382,69.29619598,382,43.30729294,382,81.23371124,
381,131.3357239,381,131.4182434,381,120.1188812,381,112.5997925,381,69.30345917,381,43.27483749,381,81.21095276,
380,131.4687347,380,131.5582428,380,120.187233,380,112.7054825,380,69.24188232,380,43.22803116,380,81.20004272,
379,131.6252594,379,131.6790771,379,120.3438644,379,112.8426208,379,69.21407318,379,43.17536545,379,81.19477844,
378,131.8164673,378,131.8596191,378,120.4866028,378,112.9637375,378,69.19795227,378,43.13513947,378,81.22627258,
377,131.9594727,377,132.0271301,377,120.6222687,377,113.048027,377,69.17523956,377,43.07044983,377,81.18482208,
376,132.115799,376,132.1698761,376,120.7242584,376,113.1969681,376,69.16003418,376,43.01931381,376,81.15473938,
375,132.300705,375,132.2832642,375,120.841301,375,113.2668152,375,69.11183167,375,42.95998764,375,81.16225433,
374,132.4775696,374,132.446991,374,121.0081329,374,113.42099,374,69.12597656,374,42.90026855,374,81.20368958,
373,132.6284943,373,132.5549011,373,121.1171112,373,113.4973068,373,69.03812408,373,42.87091446,373,81.17868042,
372,132.8013458,372,132.7189026,372,121.1642151,372,113.5864487,372,69.02277374,372,42.80235291,372,81.1506958,
371,132.9764404,371,132.8708954,371,121.2689362,371,113.7328415,371,69.01077271,371,42.75419998,371,81.15905762,
370,133.1642914,370,133.0515137,370,121.4001999,370,113.8505554,370,68.9649353,370,42.74122238,370,81.16078949,
369,133.2785187,369,133.1767731,369,121.5617218,369,113.9651642,369,68.96617126,369,42.71393204,369,81.18003082,
368,133.5289154,368,133.3220215,368,121.6861725,368,114.1191101,368,68.91483307,368,42.67257309,368,81.1780777,
367,133.7194672,367,133.476944,367,121.7664108,367,114.1559601,367,68.85216522,367,42.63399506,367,81.12532806,
366,133.8519745,366,133.5953522,366,121.9045486,366,114.2951813,366,68.84571838,366,42.63500977,366,81.13557434,
365,133.9762878,365,133.7622528,365,122.0673065,365,114.4048233,365,68.815979,365,42.60273361,365,81.14329529,
364,134.1832123,364,133.8904266,364,122.1577606,364,114.5007019,364,68.79582977,364,42.55852127,364,81.13932037,
363,134.3444061,363,133.9911957,363,122.2397537,363,114.5915527,363,68.74906158,363,42.5439949,363,81.13339233,
362,134.5471954,362,134.1584625,362,122.396431,362,114.6711121,362,68.71569061,362,42.48889923,362,81.13433075,
361,134.7195892,361,134.3695221,361,122.3964691,361,114.7889633,361,68.71395111,361,42.45937347,361,81.09513855,
360,134.8633118,360,134.3970642,360,122.4851151,360,114.8604431,360,68.67153168,360,42.41123962,360,81.10493469,
359,134.9814606,359,134.5387268,359,122.5756531,359,114.9470825,359,68.63282013,359,42.35425568,359,81.06813049,
358,135.2147675,358,134.6507416,358,122.755455,358,115.0794067,358,68.60986328,358,42.33251572,358,81.074646,
357,135.3756714,357,134.7670593,357,122.8204117,357,115.1540604,357,68.56306458,357,42.25211716,357,81.04177856,
356,135.413559,356,134.8588562,356,122.9425049,356,115.2226563,356,68.53643036,356,42.1578598,356,81.03964996,
355,135.6373444,355,135.0111542,355,122.987854,355,115.2753601,355,68.5479126,355,42.05864334,355,81.04354858,
354,135.7019043,354,135.0902863,354,123.0228043,354,115.3953781,354,68.47049713,354,41.98644638,354,81.01889038,
353,135.9440155,353,135.1445618,353,123.1291809,353,115.4053802,353,68.48934174,353,41.92219925,353,81.0105896,
352,136.0091248,352,135.2662201,352,123.1386032,352,115.4768219,352,68.47405243,352,41.82473373,352,80.98085785,
351,136.1295929,351,135.2420502,351,123.2148743,351,115.4740448,351,68.42323303,351,41.72790909,351,80.99459839,
350,136.2208405,350,135.3865051,350,123.2480621,350,115.6444778,350,68.34352112,350,41.67275238,350,80.89094543,
349,125.0280533,349,127.095047,349,117.2200317,349,110.2172165,349,65.7284317,349,40.05698776,349,77.69824982,
348,125.2841797,348,127.3457642,348,117.4167175,348,110.3355789,348,65.75818634,348,39.9991188,348,77.78354645,
347,125.4274216,347,127.5422821,347,117.4427719,347,110.4456787,347,65.81937408,347,39.95070648,347,77.84742737,
346,125.6681061,346,127.5549164,346,117.6978226,346,110.5554123,346,65.80490875,346,39.91771317,346,77.8923111,
345,125.9469757,345,127.7684326,345,117.8636093,345,110.8342133,345,65.91016388,345,39.89238739,345,77.93817139,
344,126.0290298,344,128.0481262,344,118.0440674,344,110.8936081,344,65.93234253,344,39.86763763,344,77.98888397,
343,126.2901993,343,128.2108154,343,118.2173996,343,111.0328445,343,65.96790314,343,39.79441833,343,78.04776764,
342,126.4939651,342,128.4305573,342,118.4156418,342,111.2162933,342,65.9950943,342,39.76773453,342,78.08061981,
341,126.6217499,341,128.5730133,341,118.4381485,341,111.3460693,341,66.04626465,341,39.73913193,341,78.11438751,
340,126.9170303,340,128.763855,340,118.6783066,340,111.5065308,340,66.0521698,340,39.66764832,340,78.21537781,
339,125.6484985,339,127.7219162,339,117.6589508,339,110.6081009,339,65.52441406,339,39.23925018,339,77.45142365,
338,125.6936188,338,127.8317108,338,117.7533875,338,110.6675415,338,65.49907684,338,39.17330551,338,77.51821899,
337,125.9045258,337,127.9431458,337,117.8403397,337,110.7560654,337,65.44963074,337,39.03763199,337,77.44229889,
336,125.9977112,336,128.0471039,336,117.9141846,336,110.8305588,336,65.40552521,336,38.97892761,336,77.42205811,
335,126.0836487,335,128.1639099,335,118.0301895,335,110.9025574,335,65.35772705,335,38.91572571,335,77.42354584,
334,126.3859482,334,128.2878571,334,118.1191711,334,110.9695663,334,65.34570313,334,38.83627701,334,77.41763306,
333,126.4913712,333,128.3742523,333,118.2065964,333,111.0644684,333,65.26615906,333,38.72157669,333,77.38102722,
332,126.5337448,332,128.5735626,332,118.2236176,332,111.2339706,332,65.21550751,332,38.60660934,332,77.33120728,
331,126.7363052,331,128.5711212,331,118.3231735,331,111.2911224,331,65.17069244,331,38.54243851,331,77.24793243,
330,126.7414093,330,128.5803223,330,118.4131851,330,111.2528839,330,65.10018158,330,38.45885849,330,77.27242279,
329,126.8240356,329,128.737793,329,118.560051,329,111.3851166,329,64.99783325,329,38.36159134,329,77.13421631,
328,126.8510208,328,128.8569489,328,118.5489426,328,111.3787155,328,64.93188477,328,38.26478577,328,77.12436676,
327,126.98909,327,128.832077,327,118.5243988,327,111.4588776,327,64.83455658,327,38.19248199,327,77.07211304,
326,127.0813599,326,128.9737396,326,118.7524643,326,111.5487823,326,64.75730896,326,38.06135178,326,76.97117615,
325,127.1214828,325,129.0445862,325,118.7365189,325,111.6391983,325,64.61151123,325,38.00830078,325,76.87084198,
324,127.1424866,324,129.0944366,324,118.7842026,324,111.6631851,324,64.51877594,324,37.87929153,324,76.81911469,
323,127.3358002,323,129.183075,323,118.8330765,323,111.6575928,323,64.42634583,323,37.74706268,323,76.65011597,
322,127.3379822,322,129.1795197,322,118.8804626,322,111.8114319,322,64.29346466,322,37.60009003,322,76.53141785,
321,127.3999786,321,129.2931824,321,118.9447784,321,111.7723694,321,64.13257599,321,37.475914,321,76.44682312,
320,127.5877609,320,129.3169556,320,118.9696884,320,111.7841873,320,64.08429718,320,37.36082077,320,76.3501358,
319,127.6501541,319,129.4616699,319,118.9584885,319,111.9081726,319,63.92743683,319,37.20244217,319,76.20131683,
318,127.635643,318,129.4874573,318,119.0287018,318,111.9191437,318,63.772995,318,37.08646774,318,76.19487,
317,127.6922073,317,129.5514069,317,119.0287857,317,111.910614,317,63.64149475,317,36.96158981,317,76.02674103,
316,127.8178253,316,129.6070251,316,119.1291809,316,111.961853,316,63.46108246,316,36.80952454,316,75.87900543,
315,127.844986,315,129.744873,315,119.1562271,315,111.9968796,315,63.30512619,315,36.71456909,315,75.76793671,
314,127.9136887,314,129.6959229,314,119.1564713,314,112.0097885,314,63.22208786,314,36.62661743,314,75.68799591,
313,128.0238037,313,129.7995148,313,119.1587067,313,112.0559082,313,62.98519516,313,36.47933197,313,75.51230621,
312,128.1414032,312,129.8617401,312,119.2725067,312,112.1143723,312,62.86712265,312,36.40351105,312,75.36695099,
311,128.1500092,311,129.8834534,311,119.333313,311,112.0996017,311,62.64398193,311,36.30229187,311,75.17961121,
310,128.1680603,310,129.9450378,310,119.3473206,310,112.1747131,310,62.50997925,310,36.19799042,310,75.03682709,
309,128.3477783,309,129.9755096,309,119.4028397,309,112.2750549,309,62.33705902,309,36.09741974,309,74.9140625,
308,128.3909454,308,130.0923462,308,119.4623108,308,112.2921677,308,62.19340515,308,35.9588356,308,74.69136047,
307,128.4247894,307,130.1635132,307,119.4652557,307,112.3262787,307,61.98154068,307,35.82013702,307,74.5087204,
306,128.5213165,306,130.2259979,306,119.4924622,306,112.4001846,306,61.82434464,306,35.67530441,306,74.31575775,
305,128.6367493,305,130.2778778,305,119.5226822,305,112.3646622,305,61.71745682,305,35.52064133,305,74.17019653,
304,128.891571,304,130.4244232,304,119.6043625,304,112.4339828,304,61.43576431,304,35.35312271,304,73.98781586,
303,128.8660278,303,130.4573364,303,119.7119217,303,112.5017166,303,61.26601791,303,35.19333649,303,73.81380463,
302,128.8643799,302,130.5137329,302,119.7007904,302,112.5262527,302,61.14923477,302,35.01467896,302,73.65520477,
301,128.9207611,301,130.5828552,301,119.677887,301,112.5666122,301,60.9709816,301,34.87863159,301,73.4228363,
300,129.1982727,300,130.650116,300,119.7802277,300,112.5635376,300,60.78651428,300,34.73299026,300,73.21581268,
299,129.125473,299,130.7219696,299,119.8780441,299,112.615654,299,60.515522,299,34.59139252,299,72.91661835,
298,129.1024933,298,130.7446289,298,119.8613892,298,112.6122437,298,60.25131226,298,34.44158554,298,72.73690796,
297,129.0998077,297,130.7399445,297,119.8093796,297,112.6710663,297,60.07480621,297,34.33455658,297,72.48670959,
296,129.1924896,296,130.72435,296,119.7687378,296,112.6184311,296,59.85497665,296,34.1658783,296,72.2878418,
295,129.189743,295,130.6814728,295,119.795517,295,112.649704,295,59.62937546,295,34.03180313,295,72.02912903,
294,129.0019989,294,130.6386719,294,119.7589417,294,112.549118,294,59.38985443,294,33.89224243,294,71.7605896,
293,128.9393005,293,130.59935,293,119.6398849,293,112.4945068,293,59.1126442,293,33.73223877,293,71.48454285,
292,128.9644928,292,130.5615845,292,119.6417236,292,112.5000381,292,58.83071518,292,33.54730606,292,71.21683502,
291,128.8744507,291,130.5007172,291,119.5518265,291,112.3859787,291,58.54195786,291,33.34210587,291,70.94177246,
290,128.8084259,290,130.4079895,290,119.4394073,290,112.2799149,290,58.26752853,290,33.14999771,290,70.62486267,
289,128.7248077,289,130.3572235,289,119.3610916,289,112.2314682,289,57.93790054,289,32.94521713,289,70.29997253,
288,128.615509,288,130.2279816,288,119.2662201,288,112.1390686,288,57.65879059,288,32.75578308,288,70.0009613,
287,128.6102295,287,130.1749115,287,119.1477814,287,112.026062,287,57.3715744,287,32.54750443,287,69.69219971,
286,128.4671021,286,130.118927,286,119.1126556,286,111.9190063,286,57.01194382,286,32.33855438,286,69.32940674,
285,128.3060913,285,129.9163513,285,118.9319611,285,111.8174591,285,56.68068695,285,32.1667099,285,69.03137207,
284,128.3280792,284,129.9412537,284,118.8451538,284,111.710022,284,56.37680817,284,31.96831131,284,68.6901474,
283,128.197113,283,129.7186279,283,118.7863846,283,111.6286621,283,56.03529739,283,31.77880287,283,68.32321167,
282,127.9957275,282,129.6825867,282,118.6418991,282,111.4736404,282,55.69174957,282,31.59313583,282,68.00701141,
281,128.0317841,281,129.5814972,281,118.4564438,281,111.3661804,281,55.3146019,281,31.34734917,281,67.62541962,
280,127.9041748,280,129.4029999,280,118.4010468,280,111.2863388,280,54.96591949,280,31.12248421,280,67.23658752,
279,127.7031555,279,129.344162,279,118.2325516,279,111.1773758,279,54.64253235,279,30.94687843,279,66.86473846,
278,127.7393723,278,129.2233582,278,118.1114197,278,111.0017395,278,54.25155258,278,30.69096565,278,66.49121857,
277,127.6331787,277,129.1023102,277,118.0200195,277,110.9104385,277,53.88822556,277,30.47995186,277,66.09791565,
276,127.4203796,276,128.9758148,276,117.9345932,276,110.8529892,276,53.55610275,276,30.30517387,276,65.72592926,
275,127.3053055,275,128.8385315,275,117.7924042,275,110.6827164,275,53.19424438,275,30.11811447,275,65.32043457,
274,127.2790298,274,128.6661072,274,117.5959015,274,110.5314407,274,52.82542038,274,29.90440178,274,64.90445709,
273,127.0971298,273,128.5799561,273,117.4870758,273,110.4335403,273,52.45704651,273,29.69567108,273,64.48329926,
272,126.9564972,272,128.4494171,272,117.3966293,272,110.3050079,272,52.10997009,272,29.51263428,272,64.08921051,
271,126.8108521,271,128.3093109,271,117.2014084,271,110.1868286,271,51.76389694,271,29.31245804,271,63.69357681,
270,126.7904663,270,128.1979675,270,117.0297394,270,109.9763031,270,51.44058609,270,29.08137512,270,63.27548218,
269,126.6026611,269,128.0085144,269,116.8696899,269,109.8684998,269,51.09457397,269,28.84425163,269,62.85366821,
268,126.4373322,268,127.9390793,268,116.7416077,268,109.6926193,268,50.76058578,268,28.59078979,268,62.44357681,
267,126.2587204,267,127.7504654,267,116.5943298,267,109.5845566,267,50.49186325,267,28.34655571,267,62.16131973,
266,126.0331879,266,127.5609512,266,116.4453506,266,109.4342575,266,50.19217682,266,28.09724808,266,61.70991135,
265,126.0133057,265,127.3771515,265,116.232933,265,109.2799759,265,49.87116623,265,27.8673954,265,61.22751236,
264,125.7909775,264,127.2056198,264,116.0667572,264,109.049881,264,49.58165359,264,27.65697289,264,60.79447174,
263,125.5299225,263,127.0556946,263,115.7757263,263,108.8689804,263,49.29776001,263,27.44365883,263,60.41953659,
262,125.2674484,262,126.8577423,262,115.6270294,262,108.7046051,262,49.02529907,262,27.26100731,262,60.01660919,
261,125.0894928,261,126.5951614,261,115.440033,261,108.501564,261,48.7634201,261,27.0546875,261,59.55224609,
260,124.8831406,260,126.3757477,260,115.2092133,260,108.2932816,260,48.48028183,260,26.83451843,260,59.10263824,
259,124.6185455,259,126.2070084,259,114.9733887,259,108.1032639,259,48.22630692,259,26.61774063,259,58.629673,
258,124.4204407,258,126.0473404,258,114.742836,258,107.8829422,258,48.01298141,258,26.37532425,258,58.17053223,
257,124.2334518,257,125.8225708,257,114.5868683,257,107.6930847,257,47.78061676,257,26.13204193,257,57.71600723,
256,124.0700684,256,125.6556244,256,114.4387512,256,107.5134125,256,47.55469894,256,25.87394142,256,57.2288208,
255,123.8338013,255,125.400856,255,114.2020569,255,107.3675385,255,47.33195877,255,25.63087845,255,56.75355148,
254,123.6991653,254,125.2125473,254,113.9818344,254,107.1452713,254,47.11497498,254,25.38667297,254,56.29902649,
253,123.4887466,253,125.0141602,253,113.7913971,253,106.9195862,253,46.88557816,253,25.14101219,253,55.81925583,
252,123.2913589,252,124.840271,252,113.5136032,252,106.6819077,252,46.67825699,252,24.90778923,252,55.37505722,
251,123.0674362,251,124.5379333,251,113.2402039,251,106.4463501,251,46.50589371,251,24.70285797,251,54.94704819,
250,122.7540359,250,124.3189926,250,113.0059204,250,106.2032089,250,46.29150391,250,24.44797516,250,54.53056717,
249,122.4428406,249,124.0326385,249,112.7509613,249,105.9534531,249,46.08195877,249,24.20042229,249,54.17587662,
248,122.1235962,248,123.817955,248,112.4951477,248,105.7273483,248,45.86957932,248,23.94216537,248,53.84860229,
247,121.8912964,247,123.5914688,247,112.2281799,247,105.4977188,247,45.66829681,247,23.6848774,247,53.52887344,
246,121.5907669,246,123.3199387,246,111.9102097,246,105.2034988,246,45.4513855,246,23.42694855,246,53.2613678,
245,121.3275681,245,123.0261536,245,111.6669769,245,104.944519,245,45.2397728,245,23.17518997,245,53.02663422,
244,120.9910431,244,122.7050781,244,111.3527756,244,104.6513214,244,45.00958252,244,22.90607452,244,52.80600357,
243,120.6057663,243,122.3912506,243,111.0317001,243,104.3813934,243,44.79748917,243,22.63956451,243,52.64201355,
242,120.2461243,242,122.060524,242,110.7566605,242,104.0868073,242,44.57481384,242,22.36016846,242,52.50189972,
241,119.9248047,241,121.7792053,241,110.5343018,241,103.8528595,241,44.3757515,241,22.07221031,241,52.37664413,
240,119.6042786,240,121.47229,240,110.2237091,240,103.5840302,240,44.18021393,240,21.77647781,240,52.28600311,
239,119.3261261,239,121.1942215,239,109.9315033,239,103.2819595,239,43.95001984,239,21.48005295,239,52.16695023,
238,119.0739517,238,120.9132996,238,109.5661621,238,102.9713135,238,43.76615143,238,21.18494606,238,52.03378677,
237,118.7388458,237,120.5930481,237,109.22995,237,102.6666183,237,43.53602982,237,20.91221428,237,51.89076614,
236,118.3737183,236,120.252037,236,108.8396225,236,102.3625488,236,43.32719421,236,20.62245369,236,51.7027626,
235,118.0836563,235,119.9292145,235,108.5627594,235,102.0319366,235,43.09612274,235,20.3381958,235,51.49747086,
234,117.7117081,234,119.6489487,234,108.2395782,234,101.7378235,234,42.88500595,234,20.05698776,234,51.27235031,
233,117.4429092,233,119.3788376,233,107.9206619,233,101.4872894,233,42.677845,233,19.74895096,233,50.97636414,
232,117.1391144,232,119.0182114,232,107.6122055,232,101.1513443,232,42.4546051,232,19.4204216,232,50.68061447,
231,116.7915115,231,118.6880112,231,107.2558441,231,100.8273163,231,42.22748566,231,19.05533981,231,50.32813644,
230,116.4388657,230,118.3212967,230,106.9349289,230,100.4663086,230,41.98498154,230,18.71524811,230,49.95398712,
229,116.058754,229,118.0159225,229,106.5426788,229,100.1790771,229,41.77139282,229,18.38593864,229,49.53504944,
228,115.6290512,228,117.6433792,228,106.1531448,228,99.76665497,228,41.50673294,228,18.03412056,228,49.06507111,
227,115.2195587,227,117.2195053,227,105.7616119,227,99.38336945,227,41.24996567,227,17.69056702,227,48.60027313,
226,114.8376083,226,116.8517151,226,105.4041748,226,99.03285217,226,41.03650284,226,17.33798027,226,48.11592484,
225,114.4471512,225,116.5041199,225,104.9083252,225,98.62233734,225,40.78149033,225,16.95958328,225,47.63041306,
224,113.9675293,224,116.1051788,224,104.5287247,224,98.23690033,224,40.53591919,224,16.59513855,224,47.11808395,
223,113.5152664,223,115.6251907,223,104.0978165,223,97.84999847,223,40.2850647,223,16.19547844,223,46.62428665,
222,113.023201,222,115.2060776,222,103.6938324,222,97.42996216,222,40.05251312,222,15.79403305,222,46.1321373,
221,112.5491486,221,114.7361755,221,103.1618347,221,96.97647095,221,39.80301666,221,15.37863731,221,45.63302231,
220,112.0969925,220,114.3042068,220,102.673111,220,96.51750183,220,39.53409958,220,14.94850826,220,45.13269806,
219,111.5911636,219,113.7733841,219,102.2439728,219,96.06229401,219,39.32607269,219,14.51424694,219,44.66002655,
218,111.0338669,218,113.2882233,218,101.6586914,218,95.56378937,218,39.06224442,218,14.08759785,218,44.18946457,
217,110.5157166,217,112.7483597,217,101.191452,217,95.06381989,217,38.81032181,217,13.64236164,217,43.72437286,
216,109.9199295,216,112.2664108,216,100.6409607,216,94.53804016,216,38.5947113,216,13.1930275,216,43.31904984,
215,109.3405838,215,111.7201309,215,100.0593872,215,94.07497406,215,38.36268997,215,12.74356365,215,42.89515305,
214,108.7098846,214,111.2209778,214,99.48680115,214,93.52279663,214,38.13725281,214,12.29113293,214,42.54154968,
213,108.1088562,213,110.6292114,213,98.91156769,213,93.00636292,213,37.93371964,213,11.83541203,213,42.16688919,
212,107.4965134,212,110.0886841,212,98.39659119,212,92.46740723,212,37.73428726,212,11.36920357,212,41.87855148,
211,106.8730621,211,109.4931259,211,97.84156799,211,91.93605042,211,37.52625275,211,10.91228676,211,41.61394501,
210,106.1953201,210,109.0531845,210,97.24241638,210,91.341362,210,37.32004929,210,10.45677662,210,41.3227272,
209,105.6807404,209,108.4665527,209,96.68655396,209,90.84021759,209,37.1195488,209,10.01673222,209,41.09166718,
208,105.0467758,208,107.8672028,208,96.04755402,208,90.3518219,208,36.91536331,208,9.578022003,208,40.8577919,
207,104.4289322,207,107.3623276,207,95.46592712,207,89.68209839,207,36.73898697,207,9.1534338,207,40.64406967,
206,103.8092346,206,106.7569885,206,94.83661652,206,89.11264801,206,36.51889801,206,8.728022575,206,40.40728378,
205,103.1493454,205,106.160965,205,94.19329071,205,88.5354538,205,36.31427002,205,8.314645767,205,40.16497803,
204,102.5749207,204,105.583252,204,93.54614258,204,87.91634369,204,36.07870102,204,7.907017231,204,39.91845703,
203,101.8920517,203,105.0834274,203,92.89214325,203,87.33119965,203,35.84782028,203,7.505799294,203,39.65135574,
202,101.4037628,202,104.4772186,202,92.25892639,202,86.73332214,202,35.59931946,202,7.132963181,202,39.32879639,
201,100.8928452,201,104.0923691,201,91.71059418,201,86.15532684,201,35.34905243,201,6.775188446,201,38.98573303,
200,100.2888107,200,103.4564056,200,91.06022644,200,85.55804443,200,35.07683945,200,6.422661781,200,38.59386444,

base,
base
Collection Time: 12/3/2011 1:52:09 PM
Operator Name  :
Scan Software Version: 3.00(182)
Parameter List :
Instrument                        Cary 5000
Instrument Version                1.09
Start (nm)                        800.00
Stop (nm)                         200.00
X Mode                            Nanometers
Y Mode                            %T
UV-Vis Scan Rate (nm/min)         600.000
UV-Vis Data Interval (nm)         1.000
UV-Vis Ave. Time (sec)            0.100
UV-Vis SBW (nm)                   2.000
Slit Height                       Full
Beam Mode                         Double
Signal-to-noise Mode              Off
UV Source                         On
Vis Source                        On
Third Source                      Off
Source Changeover (nm)            350.00
Detector Changeover (nm)          800.00
Grating Changeover (nm)           800.00
Baseline Correction               Off
Cycle Mode                        Off
Comments
Method Log     :
Method Name    : Default
Date/Time stamp: 12/3/2011 1:50:57 PM
Method Modifications:
Y mode Changed: 12/3/2011 1:51:26 PM, Old:Abs, New:%T
Sipper Type Changed: 12/3/2011 1:51:26 PM, Old:Internal RSA, New:External sipper
End Method Modifications
<SBW (nm)> , 2.00
<Energy> , 91.20
<Slit height> , Full
<Current Wavelength> , 199.00

base1,
base1
Collection Time: 12/3/2011 1:56:39 PM
Operator Name  :
Scan Software Version: 3.00(182)
Parameter List :
Instrument                        Cary 5000
Instrument Version                1.09
Start (nm)                        800.00
Stop (nm)                         200.00
X Mode                            Nanometers
Y Mode                            %T
UV-Vis Scan Rate (nm/min)         600.000
UV-Vis Data Interval (nm)         1.000
UV-Vis Ave. Time (sec)            0.100
UV-Vis SBW (nm)                   2.000
Slit Height                       Full
Beam Mode                         Double
Signal-to-noise Mode              Off
UV Source                         On
Vis Source                        On
Third Source                      Off
Source Changeover (nm)            350.00
Detector Changeover (nm)          800.00
Grating Changeover (nm)           800.00
Baseline Correction               Off
Cycle Mode                        Off
Comments
Method Log     :
Method Name    : Default
Date/Time stamp: 12/3/2011 1:50:57 PM
Method Modifications:
Y mode Changed: 12/3/2011 1:51:26 PM, Old:Abs, New:%T
Sipper Type Changed: 12/3/2011 1:51:26 PM, Old:Internal RSA, New:External sipper
End Method Modifications
<SBW (nm)> , 2.00
<Energy> , 83.18
<Slit height> , Full
<Current Wavelength> , 200.00

sub,
sub
Collection Time: 12/3/2011 1:58:57 PM
Operator Name  :
Scan Software Version: 3.00(182)
Parameter List :
Instrument                        Cary 5000
Instrument Version                1.09
Start (nm)                        800.00
Stop (nm)                         200.00
X Mode                            Nanometers
Y Mode                            %T
UV-Vis Scan Rate (nm/min)         600.000
UV-Vis Data Interval (nm)         1.000
UV-Vis Ave. Time (sec)            0.100
UV-Vis SBW (nm)                   2.000
Slit Height                       Full
Beam Mode                         Double
Signal-to-noise Mode              Off
UV Source                         On
Vis Source                        On
Third Source                      Off
Source Changeover (nm)            350.00
Detector Changeover (nm)          800.00
Grating Changeover (nm)           800.00
Baseline Correction               Off
Cycle Mode                        Off
Comments
Method Log     :
Method Name    : Default
Date/Time stamp: 12/3/2011 1:50:57 PM
Method Modifications:
Y mode Changed: 12/3/2011 1:51:26 PM, Old:Abs, New:%T
Sipper Type Changed: 12/3/2011 1:51:26 PM, Old:Internal RSA, New:External sipper
End Method Modifications
<SBW (nm)> , 2.00
<Energy> , 91.20
<Slit height> , Full
<Current Wavelength> , 200.00

sub1,
sub1
Collection Time: 12/3/2011 2:00:47 PM
Operator Name  :
Scan Software Version: 3.00(182)
Parameter List :
Instrument                        Cary 5000
Instrument Version                1.09
Start (nm)                        800.00
Stop (nm)                         200.00
X Mode                            Nanometers
Y Mode                            %T
UV-Vis Scan Rate (nm/min)         600.000
UV-Vis Data Interval (nm)         1.000
UV-Vis Ave. Time (sec)            0.100
UV-Vis SBW (nm)                   2.000
Slit Height                       Full
Beam Mode                         Double
Signal-to-noise Mode              Off
UV Source                         On
Vis Source                        On
Third Source                      Off
Source Changeover (nm)            350.00
Detector Changeover (nm)          800.00
Grating Changeover (nm)           800.00
Baseline Correction               Off
Cycle Mode                        Off
Comments
Method Log     :
Method Name    : Default
Date/Time stamp: 12/3/2011 1:50:57 PM
Method Modifications:
Y mode Changed: 12/3/2011 1:51:26 PM, Old:Abs, New:%T
Sipper Type Changed: 12/3/2011 1:51:26 PM, Old:Internal RSA, New:External sipper
End Method Modifications
<SBW (nm)> , 2.00
<Energy> , 91.20
<Slit height> , Full
<Current Wavelength> , 200.00

AU,
AU
Collection Time: 12/3/2011 2:03:50 PM
Operator Name  :
Scan Software Version: 3.00(182)
Parameter List :
Instrument                        Cary 5000
Instrument Version                1.09
Start (nm)                        800.00
Stop (nm)                         200.00
X Mode                            Nanometers
Y Mode                            %T
UV-Vis Scan Rate (nm/min)         600.000
UV-Vis Data Interval (nm)         1.000
UV-Vis Ave. Time (sec)            0.100
UV-Vis SBW (nm)                   2.000
Slit Height                       Full
Beam Mode                         Double
Signal-to-noise Mode              Off
UV Source                         On
Vis Source                        On
Third Source                      Off
Source Changeover (nm)            350.00
Detector Changeover (nm)          800.00
Grating Changeover (nm)           800.00
Baseline Correction               Off
Cycle Mode                        Off
Comments
Method Log     :
Method Name    : Default
Date/Time stamp: 12/3/2011 1:50:57 PM
Method Modifications:
Y mode Changed: 12/3/2011 1:51:26 PM, Old:Abs, New:%T
Sipper Type Changed: 12/3/2011 1:51:26 PM, Old:Internal RSA, New:External sipper
End Method Modifications
<SBW (nm)> , 2.00
<Energy> , 95.50
<Slit height> , Full
<Current Wavelength> , 200.00

SiNCmex,
SiNCmex
Collection Time: 12/3/2011 2:06:16 PM
Operator Name  :
Scan Software Version: 3.00(182)
Parameter List :
Instrument                        Cary 5000
Instrument Version                1.09
Start (nm)                        800.00
Stop (nm)                         200.00
X Mode                            Nanometers
Y Mode                            %T
UV-Vis Scan Rate (nm/min)         600.000
UV-Vis Data Interval (nm)         1.000
UV-Vis Ave. Time (sec)            0.100
UV-Vis SBW (nm)                   2.000
Slit Height                       Full
Beam Mode                         Double
Signal-to-noise Mode              Off
UV Source                         On
Vis Source                        On
Third Source                      Off
Source Changeover (nm)            350.00
Detector Changeover (nm)          800.00
Grating Changeover (nm)           800.00
Baseline Correction               Off
Cycle Mode                        Off
Comments
Method Log     :
Method Name    : Default
Date/Time stamp: 12/3/2011 1:50:57 PM
Method Modifications:
Y mode Changed: 12/3/2011 1:51:26 PM, Old:Abs, New:%T
Sipper Type Changed: 12/3/2011 1:51:26 PM, Old:Internal RSA, New:External sipper
End Method Modifications
<SBW (nm)> , 2.00
<Energy> , 91.20
<Slit height> , Full
<Current Wavelength> , 200.00

AuNP,
AuNP
Collection Time: 12/3/2011 2:08:29 PM
Operator Name  :
Scan Software Version: 3.00(182)
Parameter List :
Instrument                        Cary 5000
Instrument Version                1.09
Start (nm)                        800.00
Stop (nm)                         200.00
X Mode                            Nanometers
Y Mode                            %T
UV-Vis Scan Rate (nm/min)         600.000
UV-Vis Data Interval (nm)         1.000
UV-Vis Ave. Time (sec)            0.100
UV-Vis SBW (nm)                   2.000
Slit Height                       Full
Beam Mode                         Double
Signal-to-noise Mode              Off
UV Source                         On
Vis Source                        On
Third Source                      Off
Source Changeover (nm)            350.00
Detector Changeover (nm)          800.00
Grating Changeover (nm)           800.00
Baseline Correction               Off
Cycle Mode                        Off
Comments
Method Log     :
Method Name    : Default
Date/Time stamp: 12/3/2011 1:50:57 PM
Method Modifications:
Y mode Changed: 12/3/2011 1:51:26 PM, Old:Abs, New:%T
Sipper Type Changed: 12/3/2011 1:51:26 PM, Old:Internal RSA, New:External sipper
End Method Modifications
<SBW (nm)> , 2.00
<Energy> , 91.20
<Slit height> , Full
<Current Wavelength> , 200.00

